#== Filter Data - Lambda 9 Spectrophotometer ==
#  Kitt Peak National Observatory - NOAO
#------------------------------------------------
#Filter: 1NM/120NMPERMIN/0.5S  300TO1200NM
#Date: 04/08/03   Time: 15:49:35  Operator: HS
#cwl=  6404.63A  fwhm= 1508.19A  Tmax= 84.58% at  5960.00A
#Tcutoff=  2.00 %  Slitsize = 10 A
#fwhm spans 5650.54A to 7158.73A
#90%  spans 5780.33A to 6351.46A
#bw90 is  0.379; Tmin90/Tmax is  0.900
#No data smoothing
#
#Npts=  901     Disp= 10.00A/Interval
#*****
  3000.00    -0.005
  3010.00    -0.005
  3020.00    -0.005
  3030.00    -0.005
  3040.00    -0.005
  3050.00    -0.005
  3060.00    -0.005
  3070.00    -0.005
  3080.00    -0.005
  3090.00    -0.005
  3100.00    -0.005
  3110.00    -0.005
  3120.00    -0.005
  3130.00    -0.005
  3140.00    -0.005
  3150.00    -0.005
  3160.00    -0.005
  3170.00    -0.005
  3180.00    -0.020
  3190.00    -0.035
  3200.00    -0.005
  3210.00    -0.005
  3220.00    -0.005
  3230.00     0.000
  3240.00    -0.005
  3250.00    -0.005
  3260.00    -0.005
  3270.00    -0.005
  3280.00    -0.005
  3290.00    -0.005
  3300.00    -0.005
  3310.00    -0.005
  3320.00     0.000
  3330.00    -0.005
  3340.00    -0.005
  3350.00    -0.005
  3360.00    -0.005
  3370.00    -0.005
  3380.00    -0.005
  3390.00     0.000
  3400.00    -0.005
  3410.00    -0.005
  3420.00    -0.005
  3430.00     0.000
  3440.00    -0.005
  3450.00     0.000
  3460.00    -0.005
  3470.00    -0.005
  3480.00    -0.005
  3490.00    -0.005
  3500.00    -0.005
  3510.00    -0.005
  3520.00    -0.005
  3530.00    -0.005
  3540.00    -0.005
  3550.00    -0.005
  3560.00    -0.005
  3570.00    -0.005
  3580.00    -0.005
  3590.00     0.000
  3600.00    -0.005
  3610.00     0.000
  3620.00     0.000
  3630.00    -0.005
  3640.00     0.000
  3650.00    -0.005
  3660.00    -0.005
  3670.00    -0.005
  3680.00     0.000
  3690.00    -0.005
  3700.00    -0.005
  3710.00     0.000
  3720.00     0.000
  3730.00     0.000
  3740.00    -0.005
  3750.00     0.000
  3760.00     0.000
  3770.00    -0.005
  3780.00    -0.010
  3790.00    -0.005
  3800.00    -0.005
  3810.00    -0.005
  3820.00    -0.005
  3830.00    -0.005
  3840.00    -0.005
  3850.00    -0.005
  3860.00    -0.005
  3870.00    -0.005
  3880.00    -0.005
  3890.00    -0.005
  3900.00    -0.005
  3910.00    -0.005
  3920.00    -0.005
  3930.00    -0.005
  3940.00    -0.005
  3950.00    -0.005
  3960.00    -0.005
  3970.00    -0.005
  3980.00    -0.005
  3990.00    -0.005
  4000.00    -0.005
  4010.00    -0.005
  4020.00    -0.005
  4030.00    -0.005
  4040.00    -0.005
  4050.00    -0.005
  4060.00    -0.005
  4070.00    -0.005
  4080.00    -0.005
  4090.00    -0.005
  4100.00    -0.005
  4110.00    -0.005
  4120.00    -0.005
  4130.00    -0.005
  4140.00    -0.005
  4150.00    -0.005
  4160.00    -0.005
  4170.00    -0.005
  4180.00    -0.005
  4190.00    -0.005
  4200.00    -0.005
  4210.00    -0.005
  4220.00    -0.005
  4230.00    -0.005
  4240.00    -0.005
  4250.00    -0.005
  4260.00    -0.005
  4270.00    -0.005
  4280.00    -0.005
  4290.00    -0.005
  4300.00    -0.005
  4310.00    -0.005
  4320.00    -0.005
  4330.00    -0.005
  4340.00    -0.005
  4350.00    -0.005
  4360.00    -0.005
  4370.00    -0.005
  4380.00    -0.005
  4390.00    -0.005
  4400.00     0.000
  4410.00    -0.005
  4420.00    -0.005
  4430.00    -0.010
  4440.00    -0.005
  4450.00     0.000
  4460.00    -0.005
  4470.00    -0.005
  4480.00    -0.005
  4490.00    -0.005
  4500.00    -0.005
  4510.00     0.000
  4520.00    -0.005
  4530.00    -0.005
  4540.00    -0.005
  4550.00    -0.005
  4560.00    -0.005
  4570.00    -0.005
  4580.00    -0.005
  4590.00    -0.005
  4600.00    -0.005
  4610.00    -0.005
  4620.00    -0.005
  4630.00    -0.005
  4640.00    -0.005
  4650.00    -0.005
  4660.00    -0.005
  4670.00    -0.005
  4680.00    -0.005
  4690.00     0.000
  4700.00    -0.005
  4710.00    -0.005
  4720.00    -0.005
  4730.00    -0.005
  4740.00    -0.005
  4750.00     0.000
  4760.00    -0.005
  4770.00    -0.005
  4780.00    -0.005
  4790.00     0.000
  4800.00    -0.005
  4810.00    -0.005
  4820.00    -0.005
  4830.00    -0.005
  4840.00    -0.005
  4850.00    -0.005
  4860.00    -0.005
  4870.00    -0.005
  4880.00    -0.005
  4890.00    -0.005
  4900.00    -0.005
  4910.00    -0.005
  4920.00    -0.005
  4930.00    -0.005
  4940.00     0.000
  4950.00    -0.005
  4960.00     0.000
  4970.00    -0.005
  4980.00     0.000
  4990.00     0.000
  5000.00     0.000
  5010.00     0.000
  5020.00     0.000
  5030.00     0.000
  5040.00     0.000
  5050.00     0.000
  5060.00     0.000
  5070.00     0.000
  5080.00     0.000
  5090.00     0.000
  5100.00     0.000
  5110.00     0.000
  5120.00     0.000
  5130.00     0.000
  5140.00     0.000
  5150.00     0.000
  5160.00     0.000
  5170.00     0.000
  5180.00     0.000
  5190.00     0.000
  5200.00     0.000
  5210.00     0.000
  5220.00    -0.005
  5230.00     0.000
  5240.00     0.000
  5250.00     0.000
  5260.00     0.000
  5270.00     0.000
  5280.00     0.000
  5290.00     0.000
  5300.00     0.000
  5310.00     0.000
  5320.00     0.005
  5330.00     0.005
  5340.00     0.005
  5350.00     0.010
  5360.00     0.010
  5370.00     0.020
  5380.00     0.025
  5390.00     0.040
  5400.00     0.055
  5410.00     0.080
  5420.00     0.125
  5430.00     0.190
  5440.00     0.275
  5450.00     0.410
  5460.00     0.600
  5470.00     0.880
  5480.00     1.260
  5490.00     1.770
  5500.00     2.465
  5510.00     3.355
  5520.00     4.505
  5530.00     5.890
  5540.00     7.585
  5550.00     9.545
  5560.00    11.835
  5570.00    14.420
  5580.00    17.315
  5590.00    20.450
  5600.00    23.810
  5610.00    27.345
  5620.00    30.920
  5630.00    34.665
  5640.00    38.410
  5650.00    42.095
  5660.00    45.750
  5670.00    49.345
  5680.00    52.750
  5690.00    55.935
  5700.00    59.070
  5710.00    61.925
  5720.00    64.575
  5730.00    67.005
  5740.00    69.215
  5750.00    71.220
  5760.00    72.930
  5770.00    74.585
  5780.00    76.085
  5790.00    77.325
  5800.00    78.415
  5810.00    79.420
  5820.00    80.360
  5830.00    81.170
  5840.00    81.790
  5850.00    82.355
  5860.00    82.835
  5870.00    83.235
  5880.00    83.560
  5890.00    83.850
  5900.00    84.045
  5910.00    84.110
  5920.00    84.270
  5930.00    84.380
  5940.00    84.395
  5950.00    84.535
  5960.00    84.585
  5970.00    84.445
  5980.00    84.455
  5990.00    84.415
  6000.00    84.445
  6010.00    84.175
  6020.00    84.160
  6030.00    84.025
  6040.00    83.880
  6050.00    83.685
  6060.00    83.520
  6070.00    83.360
  6080.00    83.195
  6090.00    83.060
  6100.00    82.875
  6110.00    82.650
  6120.00    82.475
  6130.00    82.285
  6140.00    81.940
  6150.00    81.720
  6160.00    81.560
  6170.00    81.285
  6180.00    81.110
  6190.00    80.810
  6200.00    80.635
  6210.00    80.260
  6220.00    80.015
  6230.00    79.800
  6240.00    79.515
  6250.00    79.135
  6260.00    78.915
  6270.00    78.560
  6280.00    78.270
  6290.00    77.985
  6300.00    77.695
  6310.00    77.285
  6320.00    77.130
  6330.00    76.735
  6340.00    76.450
  6350.00    76.185
  6360.00    75.785
  6370.00    75.475
  6380.00    75.160
  6390.00    74.775
  6400.00    74.355
  6410.00    74.065
  6420.00    73.745
  6430.00    73.385
  6440.00    72.995
  6450.00    72.695
  6460.00    72.355
  6470.00    72.000
  6480.00    71.595
  6490.00    71.325
  6500.00    70.820
  6510.00    70.455
  6520.00    70.080
  6530.00    69.700
  6540.00    69.320
  6550.00    69.015
  6560.00    68.635
  6570.00    68.290
  6580.00    67.925
  6590.00    67.550
  6600.00    67.135
  6610.00    66.830
  6620.00    66.385
  6630.00    65.960
  6640.00    65.550
  6650.00    65.170
  6660.00    64.785
  6670.00    64.425
  6680.00    63.945
  6690.00    63.565
  6700.00    63.255
  6710.00    62.790
  6720.00    62.410
  6730.00    62.025
  6740.00    61.600
  6750.00    61.215
  6760.00    60.635
  6770.00    60.275
  6780.00    59.800
  6790.00    59.360
  6800.00    58.955
  6810.00    58.435
  6820.00    57.960
  6830.00    57.495
  6840.00    57.025
  6850.00    56.665
  6860.00    56.185
  6870.00    55.755
  6880.00    55.310
  6890.00    54.760
  6900.00    54.375
  6910.00    53.795
  6920.00    53.430
  6930.00    52.885
  6940.00    52.405
  6950.00    51.975
  6960.00    51.515
  6970.00    51.040
  6980.00    50.595
  6990.00    50.120
  7000.00    49.605
  7010.00    49.185
  7020.00    48.675
  7030.00    48.215
  7040.00    47.770
  7050.00    47.255
  7060.00    46.745
  7070.00    46.375
  7080.00    45.850
  7090.00    45.385
  7100.00    44.980
  7110.00    44.480
  7120.00    44.100
  7130.00    43.580
  7140.00    43.130
  7150.00    42.755
  7160.00    42.225
  7170.00    41.720
  7180.00    41.295
  7190.00    40.915
  7200.00    40.375
  7210.00    39.965
  7220.00    39.535
  7230.00    39.045
  7240.00    38.630
  7250.00    38.235
  7260.00    37.765
  7270.00    37.310
  7280.00    36.925
  7290.00    36.490
  7300.00    36.055
  7310.00    35.660
  7320.00    35.140
  7330.00    34.705
  7340.00    34.355
  7350.00    33.860
  7360.00    33.500
  7370.00    33.095
  7380.00    32.725
  7390.00    32.290
  7400.00    31.850
  7410.00    31.450
  7420.00    31.020
  7430.00    30.640
  7440.00    30.130
  7450.00    29.790
  7460.00    29.355
  7470.00    29.005
  7480.00    28.655
  7490.00    28.180
  7500.00    27.795
  7510.00    27.460
  7520.00    27.030
  7530.00    26.615
  7540.00    26.265
  7550.00    25.920
  7560.00    25.490
  7570.00    25.200
  7580.00    24.800
  7590.00    24.435
  7600.00    23.990
  7610.00    23.655
  7620.00    23.285
  7630.00    22.980
  7640.00    22.620
  7650.00    22.225
  7660.00    21.955
  7670.00    21.535
  7680.00    21.160
  7690.00    20.845
  7700.00    20.555
  7710.00    20.135
  7720.00    19.865
  7730.00    19.530
  7740.00    19.275
  7750.00    18.915
  7760.00    18.570
  7770.00    18.265
  7780.00    18.055
  7790.00    17.760
  7800.00    17.380
  7810.00    17.045
  7820.00    16.770
  7830.00    16.505
  7840.00    16.205
  7850.00    15.950
  7860.00    15.610
  7870.00    15.340
  7880.00    14.995
  7890.00    14.795
  7900.00    14.570
  7910.00    14.360
  7920.00    14.080
  7930.00    13.770
  7940.00    13.505
  7950.00    13.245
  7960.00    12.985
  7970.00    12.830
  7980.00    12.505
  7990.00    12.325
  8000.00    12.165
  8010.00    11.900
  8020.00    11.675
  8030.00    11.420
  8040.00    11.185
  8050.00    10.965
  8060.00    10.750
  8070.00    10.555
  8080.00    10.345
  8090.00    10.185
  8100.00     9.970
  8110.00     9.835
  8120.00     9.620
  8130.00     9.490
  8140.00     9.220
  8150.00     9.065
  8160.00     8.755
  8170.00     8.685
  8180.00     8.515
  8190.00     8.340
  8200.00     8.145
  8210.00     8.015
  8220.00     7.880
  8230.00     7.630
  8240.00     7.540
  8250.00     7.365
  8260.00     7.250
  8270.00     7.105
  8280.00     6.925
  8290.00     6.820
  8300.00     6.625
  8310.00     6.470
  8320.00     6.340
  8330.00     6.230
  8340.00     6.085
  8350.00     6.000
  8360.00     5.845
  8370.00     5.730
  8380.00     5.555
  8390.00     5.485
  8400.00     5.345
  8410.00     5.245
  8420.00     5.085
  8430.00     4.985
  8440.00     4.915
  8450.00     4.735
  8460.00     4.660
  8470.00     4.625
  8480.00     4.495
  8490.00     4.360
  8500.00     4.300
  8510.00     4.185
  8520.00     4.135
  8530.00     4.095
  8540.00     3.895
  8550.00     3.885
  8560.00     3.700
  8570.00     3.615
  8580.00     3.510
  8590.00     3.405
  8600.00     3.440
  8610.00     3.490
  8620.00     3.345
  8630.00     3.280
  8640.00     3.270
  8650.00     3.190
  8660.00     3.160
  8670.00     3.045
  8680.00     2.970
  8690.00     2.910
  8700.00     2.840
  8710.00     2.805
  8720.00     2.685
  8730.00     2.695
  8740.00     2.605
  8750.00     2.570
  8760.00     2.510
  8770.00     2.515
  8780.00     2.420
  8790.00     2.345
  8800.00     2.270
  8810.00     2.265
  8820.00     2.150
  8830.00     2.185
  8840.00     2.165
  8850.00     2.055
  8860.00     2.010
  8870.00     1.970
  8880.00     1.910
  8890.00     1.805
  8900.00     1.810
  8910.00     1.835
  8920.00     1.730
  8930.00     1.755
  8940.00     1.655
  8950.00     1.660
  8960.00     1.615
  8970.00     1.555
  8980.00     1.540
  8990.00     1.555
  9000.00     1.495
  9010.00     1.450
  9020.00     1.415
  9030.00     1.375
  9040.00     1.355
  9050.00     1.345
  9060.00     1.265
  9070.00     1.215
  9080.00     1.235
  9090.00     1.195
  9100.00     1.215
  9110.00     1.160
  9120.00     1.110
  9130.00     1.155
  9140.00     1.045
  9150.00     1.075
  9160.00     1.025
  9170.00     1.000
  9180.00     0.960
  9190.00     0.985
  9200.00     0.940
  9210.00     0.885
  9220.00     0.945
  9230.00     0.915
  9240.00     0.885
  9250.00     0.805
  9260.00     0.805
  9270.00     0.825
  9280.00     0.770
  9290.00     0.780
  9300.00     0.810
  9310.00     0.770
  9320.00     0.725
  9330.00     0.750
  9340.00     0.685
  9350.00     0.645
  9360.00     0.670
  9370.00     0.640
  9380.00     0.665
  9390.00     0.640
  9400.00     0.630
  9410.00     0.630
  9420.00     0.585
  9430.00     0.570
  9440.00     0.495
  9450.00     0.570
  9460.00     0.550
  9470.00     0.550
  9480.00     0.530
  9490.00     0.495
  9500.00     0.520
  9510.00     0.485
  9520.00     0.515
  9530.00     0.450
  9540.00     0.470
  9550.00     0.480
  9560.00     0.435
  9570.00     0.440
  9580.00     0.420
  9590.00     0.415
  9600.00     0.340
  9610.00     0.445
  9620.00     0.390
  9630.00     0.370
  9640.00     0.410
  9650.00     0.350
  9660.00     0.380
  9670.00     0.355
  9680.00     0.330
  9690.00     0.325
  9700.00     0.335
  9710.00     0.340
  9720.00     0.325
  9730.00     0.315
  9740.00     0.280
  9750.00     0.345
  9760.00     0.335
  9770.00     0.295
  9780.00     0.350
  9790.00     0.315
  9800.00     0.245
  9810.00     0.310
  9820.00     0.345
  9830.00     0.360
  9840.00     0.245
  9850.00     0.265
  9860.00     0.280
  9870.00     0.295
  9880.00     0.250
  9890.00     0.190
  9900.00     0.210
  9910.00     0.270
  9920.00     0.260
  9930.00     0.210
  9940.00     0.235
  9950.00     0.195
  9960.00     0.265
  9970.00     0.170
  9980.00     0.200
  9990.00     0.210
 10000.00     0.225
 10010.00     0.245
 10020.00     0.200
 10030.00     0.205
 10040.00     0.180
 10050.00     0.210
 10060.00     0.170
 10070.00     0.170
 10080.00     0.210
 10090.00     0.190
 10100.00     0.205
 10110.00     0.165
 10120.00     0.135
 10130.00     0.220
 10140.00     0.160
 10150.00     0.125
 10160.00     0.170
 10170.00     0.160
 10180.00     0.150
 10190.00     0.160
 10200.00     0.155
 10210.00     0.125
 10220.00     0.135
 10230.00     0.155
 10240.00     0.155
 10250.00     0.150
 10260.00     0.095
 10270.00     0.125
 10280.00     0.105
 10290.00     0.120
 10300.00     0.155
 10310.00     0.125
 10320.00     0.150
 10330.00     0.120
 10340.00     0.115
 10350.00     0.075
 10360.00     0.120
 10370.00     0.070
 10380.00     0.105
 10390.00     0.085
 10400.00     0.160
 10410.00     0.160
 10420.00     0.215
 10430.00     0.090
 10440.00     0.070
 10450.00     0.080
 10460.00     0.160
 10470.00     0.105
 10480.00     0.115
 10490.00     0.070
 10500.00     0.160
 10510.00     0.105
 10520.00     0.145
 10530.00     0.125
 10540.00     0.125
 10550.00     0.110
 10560.00     0.075
 10570.00     0.130
 10580.00     0.115
 10590.00     0.110
 10600.00     0.100
 10610.00     0.000
 10620.00     0.130
 10630.00     0.030
 10640.00     0.085
 10650.00     0.105
 10660.00     0.160
 10670.00     0.060
 10680.00     0.080
 10690.00     0.110
 10700.00     0.075
 10710.00     0.100
 10720.00     0.070
 10730.00     0.090
 10740.00     0.105
 10750.00     0.120
 10760.00     0.055
 10770.00     0.050
 10780.00     0.130
 10790.00     0.060
 10800.00     0.035
 10810.00     0.080
 10820.00     0.090
 10830.00     0.060
 10840.00     0.030
 10850.00     0.040
 10860.00     0.120
 10870.00     0.110
 10880.00     0.050
 10890.00     0.040
 10900.00     0.060
 10910.00     0.075
 10920.00     0.130
 10930.00     0.090
 10940.00     0.020
 10950.00     0.065
 10960.00     0.105
 10970.00     0.055
 10980.00     0.080
 10990.00     0.130
 11000.00     0.075
 11010.00     0.070
 11020.00     0.085
 11030.00     0.070
 11040.00     0.070
 11050.00     0.065
 11060.00     0.070
 11070.00     0.090
 11080.00     0.110
 11090.00     0.120
 11100.00     0.105
 11110.00     0.095
 11120.00     0.030
 11130.00     0.125
 11140.00     0.135
 11150.00     0.015
 11160.00    -0.020
 11170.00     0.110
 11180.00     0.045
 11190.00     0.055
 11200.00    -0.015
 11210.00     0.010
 11220.00     0.065
 11230.00     0.015
 11240.00     0.100
 11250.00     0.115
 11260.00     0.075
 11270.00     0.060
 11280.00     0.075
 11290.00    -0.020
 11300.00     0.060
 11310.00     0.110
 11320.00     0.145
 11330.00    -0.020
 11340.00     0.025
 11350.00    -0.030
 11360.00     0.065
 11370.00    -0.005
 11380.00     0.060
 11390.00     0.050
 11400.00     0.065
 11410.00     0.090
 11420.00     0.135
 11430.00     0.085
 11440.00     0.060
 11450.00     0.050
 11460.00     0.100
 11470.00     0.110
 11480.00     0.085
 11490.00     0.135
 11500.00     0.060
 11510.00     0.060
 11520.00     0.120
 11530.00     0.085
 11540.00     0.100
 11550.00     0.035
 11560.00    -0.015
 11570.00    -0.060
 11580.00    -0.055
 11590.00    -0.070
 11600.00    -0.040
 11610.00     0.035
 11620.00     0.020
 11630.00     0.015
 11640.00     0.020
 11650.00     0.030
 11660.00     0.090
 11670.00     0.075
 11680.00     0.075
 11690.00     0.060
 11700.00     0.050
 11710.00     0.065
 11720.00     0.030
 11730.00     0.110
 11740.00     0.105
 11750.00     0.055
 11760.00     0.070
 11770.00     0.130
 11780.00     0.105
 11790.00     0.135
 11800.00     0.095
 11810.00     0.100
 11820.00     0.070
 11830.00     0.130
 11840.00     0.110
 11850.00     0.080
 11860.00     0.025
 11870.00    -0.015
 11880.00    -0.110
 11890.00    -0.255
 11900.00    -0.160
 11910.00     0.005
 11920.00     0.065
 11930.00     0.135
 11940.00     0.045
 11950.00     0.065
 11960.00     0.040
 11970.00     0.090
 11980.00     0.100
 11990.00     0.065
 12000.00     0.070
