#
#== Filter Data - Lambda 9 Spectrophotometer ==
#  Kitt Peak National Observatory - NOAO
#------------------------------------------------
#Filter: WIYN I 2NM/30NMPERMIN/0.5S 625-1050NM
#Date: 11/19/01 Time: 14:30:58 Operator: HS
#cwl= 8333.29A fwhm= 2077.26A Tmax= 93.28% at 8000.00A
#Tcutoff= 2.00 % Slitsize = 20 A
#fwhm spans 7294.66A to 9371.92A
#90% spans 7513.14A to 8975.84A
#bw90 is 0.704; Tmin90/Tmax is 0.900
#No data smoothing
#
#Npts= 426 Disp= 10.00A/Interval
#*****
  6250.00 -0.010
  6260.00 -0.005
  6270.00 -0.010
  6280.00 -0.005
  6290.00 -0.005
  6300.00 -0.005
  6310.00 -0.005
  6320.00 -0.005
  6330.00 -0.005
  6340.00 -0.005
  6350.00 -0.005
  6360.00 -0.005
  6370.00 0.000
  6380.00 -0.010
  6390.00 -0.005
  6400.00 0.000
  6410.00 -0.005
  6420.00 -0.005
  6430.00 -0.005
  6440.00 -0.005
  6450.00 -0.005
  6460.00 -0.010
  6470.00 -0.005
  6480.00 -0.005
  6490.00 -0.010
  6500.00 -0.005
  6510.00 -0.005
  6520.00 -0.005
  6530.00 -0.005
  6540.00 -0.005
  6550.00 -0.005
  6560.00 -0.005
  6570.00 -0.005
  6580.00 -0.005
  6590.00 -0.005
  6600.00 -0.005
  6610.00 -0.005
  6620.00 -0.005
  6630.00 -0.005
  6640.00 -0.005
  6650.00 -0.005
  6660.00 -0.005
  6670.00 -0.005
  6680.00 -0.005
  6690.00 -0.005
  6700.00 -0.005
  6710.00 -0.005
  6720.00 -0.005
  6730.00 -0.005
  6740.00 -0.005
  6750.00 -0.005
  6760.00 -0.005
  6770.00 -0.005
  6780.00 -0.005
  6790.00 -0.005
  6800.00 -0.005
  6810.00 -0.005
  6820.00 -0.005
  6830.00 -0.005
  6840.00 -0.005
  6850.00 -0.005
  6860.00 -0.005
  6870.00 -0.005
  6880.00 -0.005
  6890.00 -0.005
  6900.00 -0.005
  6910.00 -0.005
  6920.00 -0.005
  6930.00 -0.005
  6940.00 -0.005
  6950.00 -0.005
  6960.00 0.000
  6970.00 0.000
  6980.00 0.010
  6990.00 0.020
  7000.00 0.045
  7010.00 0.080
  7020.00 0.140
  7030.00 0.225
  7040.00 0.365
  7050.00 0.555
  7060.00 0.820
  7070.00 1.175
  7080.00 1.650
  7090.00 2.240
  7100.00 3.000
  7110.00 3.915
  7120.00 4.995
  7130.00 6.240
  7140.00 7.695
  7150.00 9.355
  7160.00 11.165
  7170.00 13.130
  7180.00 15.325
  7190.00 17.625
  7200.00 20.145
  7210.00 22.745
  7220.00 25.395
  7230.00 28.185
  7240.00 31.010
  7250.00 33.875
  7260.00 36.780
  7270.00 39.655
  7280.00 42.515
  7290.00 45.345
  7300.00 48.130
  7310.00 50.920
  7320.00 53.555
  7330.00 56.090
  7340.00 58.615
  7350.00 61.055
  7360.00 63.260
  7370.00 65.390
  7380.00 67.420
  7390.00 69.410
  7400.00 71.340
  7410.00 72.960
  7420.00 74.540
  7430.00 76.015
  7440.00 77.380
  7450.00 78.585
  7460.00 79.815
  7470.00 80.685
  7480.00 81.655
  7490.00 82.450
  7500.00 83.200
  7510.00 83.740
  7520.00 84.430
  7530.00 84.850
  7540.00 85.220
  7550.00 85.715
  7560.00 85.905
  7570.00 86.175
  7580.00 86.395
  7590.00 86.635
  7600.00 86.910
  7610.00 86.940
  7620.00 87.170
  7630.00 87.285
  7640.00 87.270
  7650.00 87.435
  7660.00 87.555
  7670.00 87.645
  7680.00 87.730
  7690.00 87.855
  7700.00 87.990
  7710.00 88.130
  7720.00 88.365
  7730.00 88.495
  7740.00 88.735
  7750.00 88.880
  7760.00 89.130
  7770.00 89.230
  7780.00 89.570
  7790.00 89.775
  7800.00 90.005
  7810.00 90.375
  7820.00 90.580
  7830.00 90.710
  7840.00 90.970
  7850.00 91.245
  7860.00 91.415
  7870.00 91.720
  7880.00 91.875
  7890.00 92.085
  7900.00 92.280
  7910.00 92.335
  7920.00 92.675
  7930.00 92.810
  7940.00 92.790
  7950.00 92.980
  7960.00 93.000
  7970.00 93.125
  7980.00 93.105
  7990.00 93.200
  8000.00 93.285
  8010.00 93.200
  8020.00 93.120
  8030.00 93.110
  8040.00 93.030
  8050.00 92.930
  8060.00 92.860
  8070.00 92.775
  8080.00 92.605
  8090.00 92.750
  8100.00 92.545
  8110.00 92.530
  8120.00 92.290
  8130.00 92.350
  8140.00 92.115
  8150.00 92.315
  8160.00 91.980
  8170.00 92.100
  8180.00 91.840
  8190.00 91.980
  8200.00 91.885
  8210.00 91.675
  8220.00 91.660
  8230.00 91.575
  8240.00 91.640
  8250.00 91.620
  8260.00 91.640
  8270.00 91.290
  8280.00 91.390
  8290.00 91.190
  8300.00 90.975
  8310.00 91.395
  8320.00 91.215
  8330.00 91.385
  8340.00 90.830
  8350.00 91.120
  8360.00 90.725
  8370.00 90.950
  8380.00 90.905
  8390.00 90.580
  8400.00 90.480
  8410.00 90.230
  8420.00 90.060
  8430.00 90.065
  8440.00 90.075
  8450.00 89.595
  8460.00 89.545
  8470.00 89.560
  8480.00 89.415
  8490.00 89.075
  8500.00 89.170
  8510.00 88.555
  8520.00 88.865
  8530.00 88.725
  8540.00 88.455
  8550.00 88.445
  8560.00 88.455
  8570.00 88.225
  8580.00 87.910
  8590.00 87.925
  8600.00 87.685
  8610.00 87.500
  8620.00 87.520
  8630.00 87.505
  8640.00 87.545
  8650.00 87.555
  8660.00 87.590
  8670.00 87.650
  8680.00 87.700
  8690.00 87.740
  8700.00 87.790
  8710.00 87.830
  8720.00 87.865
  8730.00 87.895
  8740.00 87.960
  8750.00 87.955
  8760.00 88.005
  8770.00 87.995
  8780.00 87.980
  8790.00 87.965
  8800.00 87.930
  8810.00 87.875
  8820.00 87.795
  8830.00 87.665
  8840.00 87.575
  8850.00 87.420
  8860.00 87.250
  8870.00 87.050
  8880.00 86.845
  8890.00 86.575
  8900.00 86.355
  8910.00 86.095
  8920.00 85.750
  8930.00 85.485
  8940.00 85.205
  8950.00 84.820
  8960.00 84.520
  8970.00 84.155
  8980.00 83.815
  8990.00 83.505
  9000.00 83.170
  9010.00 82.850
  9020.00 82.575
  9030.00 82.275
  9040.00 81.995
  9050.00 81.760
  9060.00 81.535
  9070.00 81.370
  9080.00 81.215
  9090.00 81.080
  9100.00 80.985
  9110.00 80.920
  9120.00 80.885
  9130.00 80.805
  9140.00 80.780
  9150.00 80.750
  9160.00 80.730
  9170.00 80.640
  9180.00 80.520
  9190.00 80.335
  9200.00 80.075
  9210.00 79.740
  9220.00 79.225
  9230.00 78.555
  9240.00 77.735
  9250.00 76.715
  9260.00 75.485
  9270.00 73.990
  9280.00 72.260
  9290.00 70.270
  9300.00 68.000
  9310.00 65.560
  9320.00 62.925
  9330.00 60.020
  9340.00 57.005
  9350.00 53.795
  9360.00 50.505
  9370.00 47.265
  9380.00 44.015
  9390.00 40.775
  9400.00 37.630
  9410.00 34.675
  9420.00 31.905
  9430.00 29.245
  9440.00 26.730
  9450.00 24.420
  9460.00 22.215
  9470.00 20.250
  9480.00 18.395
  9490.00 16.695
  9500.00 15.195
  9510.00 13.820
  9520.00 12.605
  9530.00 11.465
  9540.00 10.415
  9550.00 9.540
  9560.00 8.695
  9570.00 7.970
  9580.00 7.285
  9590.00 6.640
  9600.00 6.130
  9610.00 5.615
  9620.00 5.160
  9630.00 4.725
  9640.00 4.395
  9650.00 4.045
  9660.00 3.735
  9670.00 3.450
  9680.00 3.225
  9690.00 3.005
  9700.00 2.790
  9710.00 2.595
  9720.00 2.420
  9730.00 2.250
  9740.00 2.090
  9750.00 1.940
  9760.00 1.805
  9770.00 1.710
  9780.00 1.615
  9790.00 1.520
  9800.00 1.435
  9810.00 1.340
  9820.00 1.275
  9830.00 1.195
  9840.00 1.125
  9850.00 1.045
  9860.00 0.970
  9870.00 0.945
  9880.00 0.890
  9890.00 0.870
  9900.00 0.800
  9910.00 0.750
  9920.00 0.730
  9930.00 0.675
  9940.00 0.620
  9950.00 0.595
  9960.00 0.575
  9970.00 0.550
  9980.00 0.535
  9990.00 0.515
 10000.00 0.500
 10010.00 0.430
 10020.00 0.425
 10030.00 0.415
 10040.00 0.405
 10050.00 0.395
 10060.00 0.335
 10070.00 0.345
 10080.00 0.345
 10090.00 0.340
 10100.00 0.290
 10110.00 0.305
 10120.00 0.295
 10130.00 0.290
 10140.00 0.250
 10150.00 0.260
 10160.00 0.260
 10170.00 0.255
 10180.00 0.220
 10190.00 0.230
 10200.00 0.225
 10210.00 0.180
 10220.00 0.200
 10230.00 0.205
 10240.00 0.160
 10250.00 0.190
 10260.00 0.165
 10270.00 0.170
 10280.00 0.175
 10290.00 0.120
 10300.00 0.160
 10310.00 0.155
 10320.00 0.145
 10330.00 0.140
 10340.00 0.135
 10350.00 0.130
 10360.00 0.135
 10370.00 0.095
 10380.00 0.125
 10390.00 0.085
 10400.00 0.120
 10410.00 0.115
 10420.00 0.095
 10430.00 0.110
 10440.00 0.090
 10450.00 0.115
 10460.00 0.090
 10470.00 0.105
 10480.00 0.095
 10490.00 0.095
 10500.00 0.085